time (ms),ω (π/sec),Δθ (π),σ_θ (π),p (Mπ/sec),σ_p (Mπ/sec)
0.000,7.464e-32,3.534e-17,2.450e-03,-6.702e-14,2.331e+01
0.002,1.431e-02,-6.331e-14,2.450e-03,-2.229e-07,2.331e+01
0.003,8.123e-02,-2.349e-12,2.450e-03,-4.197e-06,2.331e+01
0.004,2.823e-01,-2.146e-11,2.450e-03,-2.689e-05,2.331e+01
0.006,7.847e-01,-1.129e-10,2.450e-03,-1.120e-04,2.331e+01
0.007,1.883e+00,-4.394e-10,2.450e-03,-3.667e-04,2.331e+01
0.009,4.043e+00,-1.408e-09,2.450e-03,-1.022e-03,2.331e+01
0.011,7.923e+00,-3.922e-09,2.450e-03,-2.530e-03,2.331e+01
0.012,1.436e+01,-9.808e-09,2.450e-03,-5.693e-03,2.331e+01
0.013,2.429e+01,-2.246e-08,2.450e-03,-1.184e-02,2.331e+01
0.015,3.857e+01,-4.779e-08,2.450e-03,-2.300e-02,2.331e+01
0.017,5.778e+01,-9.537e-08,2.450e-03,-4.209e-02,2.331e+01
0.018,8.198e+01,-1.799e-07,2.450e-03,-7.302e-02,2.331e+01
0.019,1.105e+02,-3.227e-07,2.450e-03,-1.207e-01,2.331e+01
0.021,1.418e+02,-5.532e-07,2.450e-03,-1.909e-01,2.331e+01
0.022,1.737e+02,-9.097e-07,2.450e-03,-2.899e-01,2.331e+01
0.024,2.032e+02,-1.440e-06,2.450e-03,-4.242e-01,2.331e+01
0.025,2.276e+02,-2.203e-06,2.450e-03,-5.997e-01,2.331e+01
0.027,2.442e+02,-3.262e-06,2.450e-03,-8.213e-01,2.331e+01
0.029,2.512e+02,-4.691e-06,2.450e-03,-1.092e+00,2.331e+01
0.030,2.480e+02,-6.564e-06,2.450e-03,-1.414e+00,2.331e+01
0.032,2.397e+02,-8.957e-06,2.450e-03,-1.785e+00,2.331e+01
0.033,2.314e+02,-1.194e-05,2.450e-03,-2.205e+00,2.331e+01
0.035,2.231e+02,-1.560e-05,2.450e-03,-2.672e+00,2.331e+01
0.036,2.148e+02,-1.998e-05,2.450e-03,-3.183e+00,2.331e+01
0.037,2.065e+02,-2.516e-05,2.450e-03,-3.737e+00,2.331e+01
0.039,1.982e+02,-3.121e-05,2.450e-03,-4.332e+00,2.331e+01
0.041,1.899e+02,-3.818e-05,2.450e-03,-4.966e+00,2.331e+01
0.042,1.816e+02,-4.613e-05,2.450e-03,-5.637e+00,2.331e+01
0.043,1.733e+02,-5.511e-05,2.450e-03,-6.344e+00,2.331e+01
0.045,1.650e+02,-6.518e-05,2.450e-03,-7.085e+00,2.331e+01
0.046,1.567e+02,-7.638e-05,2.450e-03,-7.858e+00,2.331e+01
0.048,1.485e+02,-8.877e-05,2.450e-03,-8.660e+00,2.331e+01
0.050,1.402e+02,-1.024e-04,2.450e-03,-9.491e+00,2.331e+01
0.051,1.320e+02,-1.173e-04,2.451e-03,-1.035e+01,2.331e+01
0.052,1.238e+02,-1.334e-04,2.451e-03,-1.123e+01,2.330e+01
0.054,1.156e+02,-1.510e-04,2.451e-03,-1.213e+01,2.330e+01
0.056,1.075e+02,-1.698e-04,2.451e-03,-1.306e+01,2.330e+01
0.057,9.934e+01,-1.901e-04,2.451e-03,-1.400e+01,2.330e+01
0.059,9.124e+01,-2.119e-04,2.451e-03,-1.496e+01,2.330e+01
0.060,8.319e+01,-2.350e-04,2.451e-03,-1.594e+01,2.330e+01
0.061,7.518e+01,-2.597e-04,2.451e-03,-1.693e+01,2.330e+01
0.063,6.721e+01,-2.858e-04,2.451e-03,-1.793e+01,2.330e+01
0.065,5.929e+01,-3.135e-04,2.451e-03,-1.894e+01,2.330e+01
0.066,5.143e+01,-3.427e-04,2.451e-03,-1.996e+01,2.330e+01
0.068,4.363e+01,-3.734e-04,2.452e-03,-2.099e+01,2.330e+01
0.069,3.589e+01,-4.056e-04,2.452e-03,-2.202e+01,2.329e+01
0.070,2.823e+01,-4.394e-04,2.452e-03,-2.305e+01,2.329e+01
0.072,2.065e+01,-4.748e-04,2.452e-03,-2.408e+01,2.329e+01
0.073,1.315e+01,-5.117e-04,2.452e-03,-2.512e+01,2.329e+01
0.075,5.737e+00,-5.501e-04,2.452e-03,-2.615e+01,2.329e+01
0.076,-1.578e+00,-5.901e-04,2.452e-03,-2.717e+01,2.329e+01
0.078,-8.791e+00,-6.316e-04,2.453e-03,-2.819e+01,2.329e+01
0.080,-1.590e+01,-6.747e-04,2.453e-03,-2.921e+01,2.328e+01
0.081,-2.289e+01,-7.192e-04,2.453e-03,-3.021e+01,2.328e+01
0.083,-2.976e+01,-7.653e-04,2.453e-03,-3.121e+01,2.328e+01
0.084,-3.651e+01,-8.129e-04,2.453e-03,-3.219e+01,2.328e+01
0.086,-4.312e+01,-8.619e-04,2.454e-03,-3.316e+01,2.328e+01
0.087,-4.960e+01,-9.123e-04,2.454e-03,-3.411e+01,2.327e+01
0.088,-5.595e+01,-9.642e-04,2.454e-03,-3.504e+01,2.327e+01
0.090,-6.214e+01,-1.017e-03,2.454e-03,-3.596e+01,2.327e+01
0.091,-6.820e+01,-1.072e-03,2.455e-03,-3.686e+01,2.327e+01
0.093,-7.410e+01,-1.128e-03,2.455e-03,-3.774e+01,2.326e+01
0.095,-7.984e+01,-1.185e-03,2.455e-03,-3.859e+01,2.326e+01
0.096,-8.544e+01,-1.244e-03,2.455e-03,-3.942e+01,2.326e+01
0.098,-9.087e+01,-1.304e-03,2.456e-03,-4.023e+01,2.326e+01
0.099,-9.615e+01,-1.364e-03,2.456e-03,-4.101e+01,2.326e+01
0.101,-1.013e+02,-1.427e-03,2.456e-03,-4.176e+01,2.325e+01
0.102,-1.062e+02,-1.490e-03,2.456e-03,-4.248e+01,2.325e+01
0.103,-1.110e+02,-1.554e-03,2.457e-03,-4.317e+01,2.325e+01
0.105,-1.157e+02,-1.619e-03,2.457e-03,-4.383e+01,2.325e+01
0.106,-1.202e+02,-1.685e-03,2.457e-03,-4.446e+01,2.324e+01
0.108,-1.245e+02,-1.753e-03,2.457e-03,-4.506e+01,2.324e+01
0.110,-1.287e+02,-1.821e-03,2.458e-03,-4.562e+01,2.324e+01
0.111,-1.327e+02,-1.889e-03,2.458e-03,-4.615e+01,2.324e+01
0.113,-1.366e+02,-1.959e-03,2.458e-03,-4.664e+01,2.324e+01
0.114,-1.404e+02,-2.029e-03,2.458e-03,-4.709e+01,2.323e+01
0.116,-1.440e+02,-2.100e-03,2.458e-03,-4.750e+01,2.323e+01
0.117,-1.475e+02,-2.172e-03,2.459e-03,-4.788e+01,2.323e+01
0.118,-1.509e+02,-2.244e-03,2.459e-03,-4.822e+01,2.323e+01
0.120,-1.542e+02,-2.316e-03,2.459e-03,-4.851e+01,2.322e+01
0.121,-1.533e+02,-2.389e-03,2.459e-03,-4.877e+01,2.322e+01
0.123,-1.445e+02,-2.463e-03,2.459e-03,-4.898e+01,2.322e+01
0.124,-1.288e+02,-2.536e-03,2.460e-03,-4.915e+01,2.322e+01
0.126,-1.079e+02,-2.610e-03,2.460e-03,-4.929e+01,2.322e+01
0.128,-8.385e+01,-2.684e-03,2.460e-03,-4.940e+01,2.322e+01
0.129,-5.876e+01,-2.758e-03,2.460e-03,-4.948e+01,2.321e+01
0.131,-3.458e+01,-2.833e-03,2.460e-03,-4.953e+01,2.321e+01
0.132,-1.280e+01,-2.907e-03,2.460e-03,-4.957e+01,2.321e+01
0.134,5.604e+00,-2.981e-03,2.461e-03,-4.960e+01,2.321e+01
0.135,2.022e+01,-3.056e-03,2.461e-03,-4.962e+01,2.321e+01
0.137,3.112e+01,-3.130e-03,2.461e-03,-4.963e+01,2.321e+01
0.138,3.874e+01,-3.205e-03,2.461e-03,-4.964e+01,2.321e+01
0.140,4.372e+01,-3.279e-03,2.461e-03,-4.965e+01,2.321e+01
0.141,4.675e+01,-3.354e-03,2.461e-03,-4.965e+01,2.321e+01
0.142,4.846e+01,-3.428e-03,2.461e-03,-4.966e+01,2.320e+01
0.144,4.934e+01,-3.503e-03,2.461e-03,-4.966e+01,2.320e+01
0.145,4.975e+01,-3.577e-03,2.461e-03,-4.966e+01,2.320e+01
0.147,4.993e+01,-3.652e-03,2.461e-03,-4.967e+01,2.320e+01
0.148,4.999e+01,-3.726e-03,2.461e-03,-4.967e+01,2.320e+01
0.150,5.000e+01,-3.801e-03,2.461e-03,-4.967e+01,2.320e+01
0.170,5.000e+01,-4.794e-03,2.461e-03,-4.973e+01,2.320e+01
0.190,5.000e+01,-5.789e-03,2.459e-03,-4.980e+01,2.322e+01
0.210,5.000e+01,-6.785e-03,2.456e-03,-4.988e+01,2.325e+01
0.230,5.000e+01,-7.782e-03,2.452e-03,-4.996e+01,2.329e+01
0.250,5.000e+01,-8.782e-03,2.448e-03,-5.004e+01,2.333e+01
0.270,5.000e+01,-9.782e-03,2.444e-03,-5.012e+01,2.337e+01
0.290,5.000e+01,-1.078e-02,2.441e-03,-5.019e+01,2.340e+01
0.310,5.000e+01,-1.179e-02,2.439e-03,-5.026e+01,2.341e+01
0.330,5.000e+01,-1.279e-02,2.439e-03,-5.032e+01,2.341e+01
0.350,5.000e+01,-1.380e-02,2.441e-03,-5.037e+01,2.340e+01
0.370,5.000e+01,-1.481e-02,2.444e-03,-5.040e+01,2.337e+01
0.390,5.000e+01,-1.581e-02,2.447e-03,-5.042e+01,2.334e+01
0.410,5.000e+01,-1.682e-02,2.452e-03,-5.043e+01,2.330e+01
0.430,5.000e+01,-1.783e-02,2.456e-03,-5.042e+01,2.326e+01
0.450,5.000e+01,-1.884e-02,2.459e-03,-5.039e+01,2.323e+01
0.470,5.000e+01,-1.984e-02,2.461e-03,-5.035e+01,2.321e+01
0.490,5.000e+01,-2.085e-02,2.462e-03,-5.030e+01,2.320e+01
0.510,5.000e+01,-2.186e-02,2.460e-03,-5.024e+01,2.321e+01
0.530,5.000e+01,-2.286e-02,2.458e-03,-5.016e+01,2.324e+01
0.550,5.000e+01,-2.386e-02,2.454e-03,-5.009e+01,2.327e+01
0.570,5.000e+01,-2.486e-02,2.450e-03,-5.001e+01,2.331e+01
0.590,5.000e+01,-2.586e-02,2.446e-03,-4.992e+01,2.335e+01
0.610,5.000e+01,-2.686e-02,2.442e-03,-4.985e+01,2.338e+01
0.630,5.000e+01,-2.785e-02,2.440e-03,-4.977e+01,2.341e+01
0.650,5.000e+01,-2.885e-02,2.439e-03,-4.971e+01,2.342e+01
0.670,5.000e+01,-2.984e-02,2.440e-03,-4.965e+01,2.341e+01
0.690,5.000e+01,-3.083e-02,2.442e-03,-4.961e+01,2.339e+01
0.710,5.000e+01,-3.182e-02,2.445e-03,-4.959e+01,2.336e+01
0.730,5.000e+01,-3.281e-02,2.449e-03,-4.957e+01,2.332e+01
0.750,5.000e+01,-3.380e-02,2.454e-03,-4.958e+01,2.328e+01
0.770,5.000e+01,-3.480e-02,2.457e-03,-4.959e+01,2.324e+01
0.790,5.000e+01,-3.579e-02,2.460e-03,-4.963e+01,2.321e+01
0.810,5.000e+01,-3.678e-02,2.461e-03,-4.967e+01,2.320e+01
0.830,5.000e+01,-3.777e-02,2.461e-03,-4.973e+01,2.320e+01
0.850,5.000e+01,-3.877e-02,2.459e-03,-4.980e+01,2.322e+01
0.870,5.000e+01,-3.976e-02,2.456e-03,-4.987e+01,2.325e+01
0.890,5.000e+01,-4.076e-02,2.452e-03,-4.995e+01,2.329e+01
0.909,5.000e+01,-4.176e-02,2.448e-03,-5.003e+01,2.333e+01
0.929,5.000e+01,-4.276e-02,2.444e-03,-5.011e+01,2.337e+01
0.949,5.000e+01,-4.376e-02,2.441e-03,-5.019e+01,2.340e+01
0.969,5.000e+01,-4.477e-02,2.439e-03,-5.026e+01,2.341e+01
0.989,5.000e+01,-4.577e-02,2.439e-03,-5.032e+01,2.341e+01
1.009,5.000e+01,-4.678e-02,2.440e-03,-5.037e+01,2.340e+01
1.029,5.000e+01,-4.778e-02,2.443e-03,-5.040e+01,2.337e+01
1.049,5.000e+01,-4.879e-02,2.447e-03,-5.042e+01,2.334e+01
1.069,5.000e+01,-4.980e-02,2.451e-03,-5.043e+01,2.330e+01
1.089,5.000e+01,-5.081e-02,2.455e-03,-5.042e+01,2.326e+01
1.109,5.000e+01,-5.182e-02,2.459e-03,-5.039e+01,2.323e+01
1.129,5.000e+01,-5.282e-02,2.461e-03,-5.035e+01,2.321e+01
1.149,5.000e+01,-5.383e-02,2.462e-03,-5.030e+01,2.320e+01
1.169,5.000e+01,-5.483e-02,2.461e-03,-5.024e+01,2.321e+01
1.189,5.000e+01,-5.584e-02,2.458e-03,-5.017e+01,2.323e+01
1.209,5.000e+01,-5.684e-02,2.455e-03,-5.009e+01,2.327e+01
1.229,5.000e+01,-5.784e-02,2.450e-03,-5.001e+01,2.331e+01
1.249,5.000e+01,-5.884e-02,2.446e-03,-4.993e+01,2.335e+01
1.269,5.000e+01,-5.983e-02,2.443e-03,-4.985e+01,2.338e+01
1.289,5.000e+01,-6.083e-02,2.440e-03,-4.978e+01,2.341e+01
1.309,5.000e+01,-6.182e-02,2.439e-03,-4.971e+01,2.342e+01
1.329,5.000e+01,-6.282e-02,2.440e-03,-4.966e+01,2.341e+01
1.349,5.000e+01,-6.381e-02,2.442e-03,-4.961e+01,2.339e+01
1.369,5.000e+01,-6.480e-02,2.445e-03,-4.959e+01,2.336e+01
1.389,5.000e+01,-6.579e-02,2.449e-03,-4.957e+01,2.332e+01
1.409,5.000e+01,-6.678e-02,2.453e-03,-4.957e+01,2.328e+01
1.429,5.000e+01,-6.777e-02,2.457e-03,-4.959e+01,2.324e+01
1.449,5.000e+01,-6.876e-02,2.460e-03,-4.962e+01,2.322e+01
1.469,5.000e+01,-6.976e-02,2.461e-03,-4.967e+01,2.320e+01
1.489,5.000e+01,-7.075e-02,2.461e-03,-4.973e+01,2.320e+01
1.509,5.000e+01,-7.174e-02,2.460e-03,-4.979e+01,2.322e+01
1.529,5.000e+01,-7.274e-02,2.457e-03,-4.987e+01,2.325e+01
1.549,5.000e+01,-7.374e-02,2.453e-03,-4.995e+01,2.329e+01
1.569,5.000e+01,-7.474e-02,2.448e-03,-5.003e+01,2.333e+01
1.589,5.000e+01,-7.574e-02,2.444e-03,-5.011e+01,2.337e+01
1.609,5.000e+01,-7.674e-02,2.441e-03,-5.019e+01,2.339e+01
1.629,5.000e+01,-7.774e-02,2.439e-03,-5.026e+01,2.341e+01
1.649,5.000e+01,-7.875e-02,2.439e-03,-5.032e+01,2.342e+01
1.669,5.000e+01,-7.976e-02,2.440e-03,-5.036e+01,2.340e+01
1.689,5.000e+01,-8.076e-02,2.443e-03,-5.040e+01,2.338e+01
1.709,5.000e+01,-8.177e-02,2.447e-03,-5.042e+01,2.334e+01
1.729,5.000e+01,-8.278e-02,2.451e-03,-5.043e+01,2.330e+01
1.749,5.000e+01,-8.379e-02,2.455e-03,-5.042e+01,2.326e+01
1.769,5.000e+01,-8.479e-02,2.459e-03,-5.039e+01,2.323e+01
1.789,5.000e+01,-8.580e-02,2.461e-03,-5.036e+01,2.321e+01
1.809,5.000e+01,-8.681e-02,2.462e-03,-5.030e+01,2.320e+01
1.829,5.000e+01,-8.781e-02,2.461e-03,-5.024e+01,2.321e+01
1.849,5.000e+01,-8.881e-02,2.458e-03,-5.017e+01,2.323e+01
1.869,5.000e+01,-8.982e-02,2.455e-03,-5.009e+01,2.327e+01
1.889,5.000e+01,-9.082e-02,2.451e-03,-5.001e+01,2.331e+01
1.909,5.000e+01,-9.182e-02,2.446e-03,-4.993e+01,2.335e+01
1.929,5.000e+01,-9.281e-02,2.443e-03,-4.985e+01,2.338e+01
1.949,5.000e+01,-9.381e-02,2.440e-03,-4.978e+01,2.340e+01
1.969,5.000e+01,-9.480e-02,2.439e-03,-4.971e+01,2.342e+01
1.989,5.000e+01,-9.580e-02,2.439e-03,-4.966e+01,2.341e+01
198.018,5.000e+01,-1.897e+00,2.456e-03,-5.018e+01,2.326e+01
198.038,5.000e+01,-1.898e+00,2.459e-03,-5.010e+01,2.323e+01
198.058,5.000e+01,-1.899e+00,2.461e-03,-5.002e+01,2.321e+01
198.078,5.000e+01,-1.900e+00,2.461e-03,-4.994e+01,2.320e+01
198.098,5.000e+01,-1.901e+00,2.460e-03,-4.986e+01,2.322e+01
198.118,5.000e+01,-1.902e+00,2.458e-03,-4.978e+01,2.324e+01
198.138,5.000e+01,-1.903e+00,2.454e-03,-4.972e+01,2.327e+01
198.158,5.000e+01,-1.904e+00,2.450e-03,-4.966e+01,2.331e+01
198.178,5.000e+01,-1.905e+00,2.446e-03,-4.962e+01,2.335e+01
198.198,5.000e+01,-1.906e+00,2.442e-03,-4.959e+01,2.338e+01
198.218,5.000e+01,-1.907e+00,2.440e-03,-4.957e+01,2.341e+01
198.238,5.000e+01,-1.908e+00,2.439e-03,-4.957e+01,2.341e+01
198.258,5.000e+01,-1.909e+00,2.440e-03,-4.959e+01,2.341e+01
198.278,5.000e+01,-1.910e+00,2.442e-03,-4.962e+01,2.339e+01
198.298,5.000e+01,-1.911e+00,2.446e-03,-4.966e+01,2.335e+01
198.318,5.000e+01,-1.912e+00,2.450e-03,-4.972e+01,2.331e+01
198.338,5.000e+01,-1.913e+00,2.454e-03,-4.978e+01,2.327e+01
198.358,5.000e+01,-1.914e+00,2.457e-03,-4.986e+01,2.324e+01
198.378,5.000e+01,-1.915e+00,2.460e-03,-4.994e+01,2.322e+01
198.398,5.000e+01,-1.916e+00,2.461e-03,-5.002e+01,2.320e+01
198.418,5.000e+01,-1.917e+00,2.461e-03,-5.010e+01,2.321e+01
198.438,5.000e+01,-1.918e+00,2.459e-03,-5.018e+01,2.323e+01
198.458,5.000e+01,-1.919e+00,2.456e-03,-5.025e+01,2.325e+01
198.478,5.000e+01,-1.920e+00,2.452e-03,-5.031e+01,2.329e+01
198.498,5.000e+01,-1.921e+00,2.448e-03,-5.036e+01,2.333e+01
198.518,5.000e+01,-1.922e+00,2.444e-03,-5.040e+01,2.337e+01
198.538,5.000e+01,-1.923e+00,2.441e-03,-5.042e+01,2.340e+01
198.558,5.000e+01,-1.924e+00,2.439e-03,-5.043e+01,2.341e+01
198.578,5.000e+01,-1.925e+00,2.439e-03,-5.042e+01,2.341e+01
198.598,5.000e+01,-1.926e+00,2.441e-03,-5.040e+01,2.340e+01
198.618,5.000e+01,-1.927e+00,2.444e-03,-5.036e+01,2.337e+01
198.638,5.000e+01,-1.928e+00,2.447e-03,-5.031e+01,2.334e+01
198.658,5.000e+01,-1.929e+00,2.452e-03,-5.025e+01,2.330e+01
198.678,5.000e+01,-1.930e+00,2.456e-03,-5.018e+01,2.326e+01
198.698,5.000e+01,-1.931e+00,2.459e-03,-5.010e+01,2.323e+01
198.718,5.000e+01,-1.932e+00,2.461e-03,-5.002e+01,2.321e+01
198.738,5.000e+01,-1.933e+00,2.461e-03,-4.994e+01,2.320e+01
198.758,5.000e+01,-1.934e+00,2.460e-03,-4.986e+01,2.321e+01
198.778,5.000e+01,-1.935e+00,2.458e-03,-4.979e+01,2.324e+01
198.798,5.000e+01,-1.936e+00,2.454e-03,-4.972e+01,2.327e+01
198.818,5.000e+01,-1.937e+00,2.450e-03,-4.966e+01,2.331e+01
198.838,5.000e+01,-1.938e+00,2.446e-03,-4.962e+01,2.335e+01
198.858,5.000e+01,-1.939e+00,2.442e-03,-4.959e+01,2.338e+01
198.878,5.000e+01,-1.940e+00,2.440e-03,-4.957e+01,2.341e+01
198.898,5.000e+01,-1.941e+00,2.439e-03,-4.957e+01,2.341e+01
198.918,5.000e+01,-1.942e+00,2.440e-03,-4.959e+01,2.341e+01
198.938,5.000e+01,-1.943e+00,2.442e-03,-4.962e+01,2.339e+01
198.958,5.000e+01,-1.944e+00,2.445e-03,-4.966e+01,2.336e+01
198.977,5.000e+01,-1.945e+00,2.449e-03,-4.971e+01,2.332e+01
198.997,5.000e+01,-1.946e+00,2.454e-03,-4.978e+01,2.328e+01
199.017,5.000e+01,-1.947e+00,2.457e-03,-4.985e+01,2.324e+01
199.037,5.000e+01,-1.948e+00,2.460e-03,-4.993e+01,2.322e+01
199.057,5.000e+01,-1.949e+00,2.461e-03,-5.001e+01,2.320e+01
199.077,5.000e+01,-1.950e+00,2.461e-03,-5.010e+01,2.321e+01
199.097,5.000e+01,-1.951e+00,2.459e-03,-5.017e+01,2.322e+01
199.117,5.000e+01,-1.952e+00,2.456e-03,-5.024e+01,2.325e+01
199.137,5.000e+01,-1.953e+00,2.452e-03,-5.031e+01,2.329e+01
199.157,5.000e+01,-1.954e+00,2.448e-03,-5.036e+01,2.333e+01
199.177,5.000e+01,-1.955e+00,2.444e-03,-5.040e+01,2.337e+01
199.197,5.000e+01,-1.956e+00,2.441e-03,-5.042e+01,2.339e+01
199.217,5.000e+01,-1.957e+00,2.439e-03,-5.043e+01,2.341e+01
199.237,5.000e+01,-1.958e+00,2.439e-03,-5.042e+01,2.341e+01
199.257,5.000e+01,-1.959e+00,2.441e-03,-5.040e+01,2.340e+01
199.277,5.000e+01,-1.960e+00,2.443e-03,-5.037e+01,2.337e+01
199.297,5.000e+01,-1.961e+00,2.447e-03,-5.032e+01,2.334e+01
199.317,5.000e+01,-1.962e+00,2.451e-03,-5.026e+01,2.330e+01
199.337,5.000e+01,-1.963e+00,2.455e-03,-5.019e+01,2.326e+01
199.357,5.000e+01,-1.964e+00,2.459e-03,-5.011e+01,2.323e+01
199.377,5.000e+01,-1.965e+00,2.461e-03,-5.003e+01,2.321e+01
199.397,5.000e+01,-1.966e+00,2.461e-03,-4.995e+01,2.320e+01
199.417,5.000e+01,-1.967e+00,2.460e-03,-4.987e+01,2.321e+01
199.437,5.000e+01,-1.968e+00,2.458e-03,-4.979e+01,2.324e+01
199.457,5.000e+01,-1.969e+00,2.454e-03,-4.972e+01,2.327e+01
199.477,5.000e+01,-1.970e+00,2.450e-03,-4.967e+01,2.331e+01
199.497,5.000e+01,-1.971e+00,2.446e-03,-4.962e+01,2.335e+01
199.517,5.000e+01,-1.972e+00,2.443e-03,-4.959e+01,2.338e+01
199.537,5.000e+01,-1.973e+00,2.440e-03,-4.957e+01,2.340e+01
199.557,5.000e+01,-1.974e+00,2.439e-03,-4.957e+01,2.341e+01
199.577,5.000e+01,-1.975e+00,2.440e-03,-4.959e+01,2.341e+01
199.597,5.000e+01,-1.976e+00,2.442e-03,-4.961e+01,2.339e+01
199.617,5.000e+01,-1.977e+00,2.445e-03,-4.966e+01,2.336e+01
199.637,5.000e+01,-1.978e+00,2.449e-03,-4.971e+01,2.332e+01
199.657,5.000e+01,-1.979e+00,2.453e-03,-4.978e+01,2.328e+01
199.677,5.000e+01,-1.980e+00,2.457e-03,-4.985e+01,2.324e+01
199.697,5.000e+01,-1.981e+00,2.460e-03,-4.993e+01,2.322e+01
199.717,5.000e+01,-1.982e+00,2.461e-03,-5.001e+01,2.320e+01
199.737,5.000e+01,-1.983e+00,2.461e-03,-5.009e+01,2.321e+01
199.757,5.000e+01,-1.984e+00,2.459e-03,-5.017e+01,2.322e+01
199.777,5.000e+01,-1.985e+00,2.456e-03,-5.024e+01,2.325e+01
199.797,5.000e+01,-1.986e+00,2.453e-03,-5.030e+01,2.329e+01
199.817,5.000e+01,-1.987e+00,2.448e-03,-5.036e+01,2.333e+01
199.837,5.000e+01,-1.988e+00,2.444e-03,-5.040e+01,2.336e+01
199.857,5.000e+01,-1.989e+00,2.441e-03,-5.042e+01,2.339e+01
199.877,5.000e+01,-1.990e+00,2.440e-03,-5.043e+01,2.341e+01
199.897,5.000e+01,-1.991e+00,2.439e-03,-5.042e+01,2.341e+01
199.917,5.000e+01,-1.992e+00,2.441e-03,-5.040e+01,2.340e+01
199.937,5.000e+01,-1.993e+00,2.443e-03,-5.037e+01,2.338e+01
199.957,5.000e+01,-1.994e+00,2.447e-03,-5.032e+01,2.334e+01
199.977,5.000e+01,-1.995e+00,2.451e-03,-5.026e+01,2.330e+01
199.997,5.000e+01,-1.996e+00,2.455e-03,-5.019e+01,2.326e+01
199.998,4.999e+01,-1.996e+00,2.455e-03,-5.018e+01,2.326e+01
200.000,4.993e+01,-1.996e+00,2.456e-03,-5.018e+01,2.326e+01
200.001,4.975e+01,-1.996e+00,2.456e-03,-5.017e+01,2.325e+01
200.003,4.934e+01,-1.997e+00,2.456e-03,-5.017e+01,2.325e+01
200.004,4.846e+01,-1.997e+00,2.456e-03,-5.016e+01,2.325e+01
200.006,4.675e+01,-1.997e+00,2.457e-03,-5.015e+01,2.325e+01
200.007,4.372e+01,-1.997e+00,2.457e-03,-5.015e+01,2.324e+01
200.009,3.874e+01,-1.997e+00,2.457e-03,-5.014e+01,2.324e+01
200.010,3.112e+01,-1.997e+00,2.457e-03,-5.013e+01,2.324e+01
200.012,2.022e+01,-1.997e+00,2.458e-03,-5.011e+01,2.324e+01
200.013,5.604e+00,-1.997e+00,2.458e-03,-5.009e+01,2.324e+01
200.015,-1.280e+01,-1.997e+00,2.458e-03,-5.006e+01,2.323e+01
200.016,-3.458e+01,-1.997e+00,2.458e-03,-5.002e+01,2.323e+01
200.018,-5.876e+01,-1.997e+00,2.459e-03,-4.996e+01,2.323e+01
200.019,-8.385e+01,-1.997e+00,2.459e-03,-4.988e+01,2.323e+01
200.021,-1.079e+02,-1.997e+00,2.459e-03,-4.977e+01,2.323e+01
200.022,-1.288e+02,-1.997e+00,2.459e-03,-4.963e+01,2.322e+01
200.024,-1.445e+02,-1.998e+00,2.459e-03,-4.945e+01,2.322e+01
200.025,-1.533e+02,-1.998e+00,2.460e-03,-4.923e+01,2.322e+01
200.027,-1.542e+02,-1.998e+00,2.460e-03,-4.897e+01,2.322e+01
200.028,-1.509e+02,-1.998e+00,2.460e-03,-4.868e+01,2.322e+01
200.030,-1.475e+02,-1.998e+00,2.460e-03,-4.834e+01,2.322e+01
200.031,-1.440e+02,-1.998e+00,2.460e-03,-4.796e+01,2.321e+01
200.033,-1.404e+02,-1.998e+00,2.460e-03,-4.754e+01,2.321e+01
200.034,-1.366e+02,-1.998e+00,2.460e-03,-4.708e+01,2.321e+01
200.036,-1.327e+02,-1.998e+00,2.461e-03,-4.659e+01,2.321e+01
200.037,-1.287e+02,-1.998e+00,2.461e-03,-4.606e+01,2.321e+01
200.039,-1.245e+02,-1.998e+00,2.461e-03,-4.549e+01,2.321e+01
200.040,-1.202e+02,-1.998e+00,2.461e-03,-4.489e+01,2.321e+01
200.042,-1.157e+02,-1.998e+00,2.461e-03,-4.426e+01,2.321e+01
200.043,-1.110e+02,-1.998e+00,2.461e-03,-4.359e+01,2.321e+01
200.045,-1.062e+02,-1.999e+00,2.461e-03,-4.289e+01,2.320e+01
200.046,-1.013e+02,-1.999e+00,2.461e-03,-4.217e+01,2.320e+01
200.048,-9.615e+01,-1.999e+00,2.461e-03,-4.141e+01,2.320e+01
200.049,-9.087e+01,-1.999e+00,2.461e-03,-4.063e+01,2.320e+01
200.051,-8.544e+01,-1.999e+00,2.462e-03,-3.982e+01,2.320e+01
200.052,-7.984e+01,-1.999e+00,2.462e-03,-3.898e+01,2.320e+01
200.054,-7.410e+01,-1.999e+00,2.462e-03,-3.812e+01,2.320e+01
200.055,-6.820e+01,-1.999e+00,2.462e-03,-3.724e+01,2.320e+01
200.057,-6.214e+01,-1.999e+00,2.462e-03,-3.634e+01,2.320e+01
200.058,-5.595e+01,-1.999e+00,2.462e-03,-3.541e+01,2.320e+01
200.060,-4.960e+01,-1.999e+00,2.462e-03,-3.447e+01,2.320e+01
200.061,-4.312e+01,-1.999e+00,2.462e-03,-3.351e+01,2.320e+01
200.063,-3.651e+01,-1.999e+00,2.462e-03,-3.254e+01,2.320e+01
